# Data from FTS intensity atlas
# Wavelength (nm)  Normalised disk-centre intensity 
 616.09991  0.98690
 616.10060  0.98690
 616.10129  0.98640
 616.10198  0.98600
 616.10266  0.98530
 616.10335  0.98440
 616.10404  0.98330
 616.10473  0.98150
 616.10542  0.97910
 616.10611  0.97690
 616.10680  0.97390
 616.10749  0.96970
 616.10818  0.96560
 616.10887  0.96250
 616.10956  0.95920
 616.11025  0.95560
 616.11094  0.95310
 616.11163  0.95220
 616.11231  0.95240
 616.11300  0.95310
 616.11369  0.95380
 616.11438  0.95460
 616.11507  0.95550
 616.11576  0.95560
 616.11645  0.95400
 616.11714  0.95120
 616.11783  0.94720
 616.11852  0.94080
 616.11921  0.93130
 616.11990  0.91910
 616.12059  0.90320
 616.12127  0.88230
 616.12196  0.85580
 616.12265  0.82400
 616.12334  0.78720
 616.12403  0.74540
 616.12472  0.69970
 616.12541  0.65230
 616.12610  0.60560
 616.12679  0.56080
 616.12748  0.52040
 616.12817  0.48800
 616.12886  0.46600
 616.12955  0.45550
 616.13024  0.45830
 616.13092  0.47590
 616.13161  0.50690
 616.13230  0.54850
 616.13299  0.59790
 616.13368  0.65040
 616.13437  0.70180
 616.13506  0.74940
 616.13575  0.79150
 616.13644  0.82670
 616.13713  0.85560
 616.13782  0.87950
 616.13851  0.89900
 616.13920  0.91420
 616.13989  0.92610
 616.14057  0.93590
 616.14126  0.94390
 616.14195  0.95070
 616.14264  0.95620
 616.14333  0.96030
 616.14402  0.96350
 616.14471  0.96630
 616.14540  0.96860
 616.14609  0.97000
 616.14678  0.97090
 616.14747  0.97170
 616.14816  0.97240
 616.14885  0.97270
 616.14954  0.97280
 616.15023  0.97280
 616.15091  0.97290
 616.15160  0.97320
 616.15229  0.97320
 616.15298  0.97270
 616.15367  0.97210
 616.15436  0.97190
 616.15505  0.97170
 616.15574  0.97140
 616.15643  0.97100
 616.15712  0.97050
 616.15781  0.96990
 616.15850  0.96910
 616.15919  0.96800
 616.15988  0.96690
 616.16057  0.96630
 616.16125  0.96560
 616.16194  0.96440
 616.16263  0.96330
 616.16332  0.96280
 616.16401  0.96160
 616.16470  0.95990
 616.16539  0.95900
 616.16608  0.95850
 616.16677  0.95770
 616.16746  0.95650
 616.16815  0.95580
 616.16884  0.95550
 616.16953  0.95480
 616.17022  0.95350
 616.17091  0.95260
 616.17160  0.95220
 616.17228  0.95140
 616.17297  0.94990
 616.17366  0.94870
 616.17435  0.94790
 616.17504  0.94650
 616.17573  0.94480
 616.17642  0.94380
 616.17711  0.94270
 616.17780  0.94090
 616.17849  0.93880
 616.17918  0.93680
 616.17987  0.93490
 616.18056  0.93310
 616.18125  0.93070
 616.18194  0.92750
 616.18263  0.92450
 616.18332  0.92200
 616.18400  0.91920
 616.18469  0.91580
 616.18538  0.91210
 616.18607  0.90850
 616.18676  0.90480
 616.18745  0.90060
 616.18814  0.89600
 616.18883  0.89140
 616.18952  0.88720
 616.19021  0.88270
 616.19090  0.87710
 616.19159  0.87120
 616.19228  0.86550
 616.19297  0.85900
 616.19366  0.85190
 616.19435  0.84450
 616.19504  0.83650
 616.19572  0.82730
 616.19641  0.81770
 616.19710  0.80780
 616.19779  0.79700
 616.19848  0.78530
 616.19917  0.77280
 616.19986  0.75920
 616.20055  0.74470
 616.20124  0.72980
 616.20193  0.71400
 616.20262  0.69670
 616.20331  0.67850
 616.20400  0.65990
 616.20469  0.64020
 616.20538  0.61930
 616.20607  0.59800
 616.20676  0.57600
 616.20745  0.55240
 616.20813  0.52690
 616.20882  0.49980
 616.20951  0.47000
 616.21020  0.43670
 616.21089  0.40050
 616.21158  0.36210
 616.21227  0.32210
 616.21296  0.28290
 616.21365  0.24710
 616.21434  0.21610
 616.21503  0.19070
 616.21572  0.17130
 616.21641  0.15720
 616.21710  0.14760
 616.21779  0.14250
 616.21848  0.14200
 616.21917  0.14520
 616.21986  0.15240
 616.22055  0.16470
 616.22123  0.18270
 616.22192  0.20720
 616.22261  0.23890
 616.22330  0.27780
 616.22399  0.32230
 616.22468  0.36920
 616.22537  0.41500
 616.22606  0.45720
 616.22675  0.49520
 616.22744  0.52910
 616.22813  0.55880
 616.22882  0.58500
 616.22951  0.60830
 616.23020  0.62960
 616.23089  0.64930
 616.23158  0.66740
 616.23227  0.68420
 616.23296  0.69990
 616.23365  0.71470
 616.23434  0.72870
 616.23502  0.74210
 616.23571  0.75490
 616.23640  0.76730
 616.23709  0.77910
 616.23778  0.79030
 616.23847  0.80080
 616.23916  0.81060
 616.23985  0.81980
 616.24054  0.82870
 616.24123  0.83760
 616.24192  0.84580
 616.24261  0.85280
 616.24330  0.85900
 616.24399  0.86550
 616.24468  0.87190
 616.24537  0.87770
 616.24606  0.88310
 616.24675  0.88830
 616.24744  0.89310
 616.24813  0.89750
 616.24882  0.90180
 616.24951  0.90580
 616.25019  0.90970
 616.25088  0.91360
 616.25157  0.91670
 616.25226  0.91910
 616.25295  0.92210
 616.25364  0.92560
 616.25433  0.92850
 616.25502  0.93060
 616.25571  0.93300
 616.25640  0.93540
 616.25709  0.93740
 616.25778  0.93940
 616.25847  0.94170
 616.25916  0.94360
 616.25985  0.94500
 616.26054  0.94660
 616.26123  0.94830
 616.26192  0.94970
 616.26261  0.95090
 616.26330  0.95240
 616.26399  0.95400
 616.26468  0.95520
 616.26537  0.95600
 616.26605  0.95680
 616.26674  0.95770
 616.26743  0.95850
 616.26812  0.95910
 616.26881  0.96000
 616.26950  0.96120
 616.27019  0.96220
 616.27088  0.96290
 616.27157  0.96350
 616.27226  0.96430
 616.27295  0.96540
 616.27364  0.96650
 616.27433  0.96720
 616.27502  0.96780
 616.27571  0.96840
 616.27640  0.96930
 616.27709  0.97010
 616.27778  0.97090
 616.27847  0.97150
 616.27916  0.97210
 616.27985  0.97250
 616.28054  0.97310
 616.28123  0.97400
 616.28192  0.97510
 616.28261  0.97570
 616.28330  0.97620
 616.28398  0.97710
 616.28467  0.97780
 616.28536  0.97820
 616.28605  0.97860
 616.28674  0.97900
 616.28743  0.97950
 616.28812  0.98010
 616.28881  0.98040
 616.28950  0.98060
 616.29019  0.98140
 616.29088  0.98220
 616.29157  0.98220
 616.29226  0.98210
 616.29295  0.98280
 616.29364  0.98360
 616.29433  0.98380
 616.29502  0.98380
 616.29571  0.98390
 616.29640  0.98390
 616.29709  0.98400
 616.29778  0.98450
 616.29847  0.98500
 616.29916  0.98500
 616.29985  0.98510